3997.97017	0.86760
3996.04158	0.86765
3994.11299	0.86769
3992.18440	0.86770
3990.25581	0.86769
3988.32722	0.86769
3986.39863	0.86771
3984.47003	0.86775
3982.54144	0.86779
3980.61285	0.86782
3978.68426	0.86784
3976.75567	0.86783
3974.82708	0.86780
3972.89849	0.86776
3970.96989	0.86773
3969.04130	0.86772
3967.11271	0.86774
3965.18412	0.86777
3963.25553	0.86779
3961.32694	0.86777
3959.39834	0.86773
3957.46975	0.86769
3955.54116	0.86767
3953.61257	0.86766
3951.68398	0.86765
3949.75539	0.86764
3947.82680	0.86762
3945.89820	0.86764
3943.96961	0.86766
3942.04102	0.86767
3940.11243	0.86769
3938.18384	0.86774
3936.25525	0.86781
3934.32666	0.86786
3932.39806	0.86788
3930.46947	0.86790
3928.54088	0.86797
3926.61229	0.86805
3924.68370	0.86809
3922.75511	0.86807
3920.82651	0.86799
3918.89792	0.86787
3916.96933	0.86771
3915.04074	0.86764
3913.11215	0.86774
3911.18356	0.86799
3909.25497	0.86830
3907.32637	0.86854
3905.39778	0.86856
3903.46919	0.86831
3901.54060	0.86792
3899.61201	0.86760
3897.68342	0.86748
3895.75483	0.86760
3893.82623	0.86780
3891.89764	0.86795
3889.96905	0.86801
3888.04046	0.86806
3886.11187	0.86810
3884.18328	0.86809
3882.25468	0.86808
3880.32609	0.86810
3878.39750	0.86820
3876.46891	0.86842
3874.54032	0.86863
3872.61173	0.86866
3870.68314	0.86848
3868.75454	0.86821
3866.82595	0.86806
3864.89736	0.86804
3862.96877	0.86813
3861.04018	0.86839
3859.11159	0.86883
3857.18300	0.86923
3855.25440	0.86926
3853.32581	0.86880
3851.39722	0.86822
3849.46863	0.86803
3847.54004	0.86829
3845.61145	0.86877
3843.68285	0.86917
3841.75426	0.86931
3839.82567	0.86916
3837.89708	0.86882
3835.96849	0.86853
3834.03990	0.86843
3832.11131	0.86853
3830.18271	0.86874
3828.25412	0.86901
3826.32553	0.86929
3824.39694	0.86952
3822.46835	0.86958
3820.53976	0.86941
3818.61117	0.86911
3816.68257	0.86886
3814.75398	0.86875
3812.82539	0.86891
3810.89680	0.86931
3808.96821	0.86971
3807.03962	0.86989
3805.11102	0.86986
3803.18243	0.86972
3801.25384	0.86947
3799.32525	0.86920
3797.39666	0.86905
3795.46807	0.86902
3793.53948	0.86914
3791.61088	0.86936
3789.68229	0.86962
3787.75370	0.86985
3785.82511	0.87001
3783.89652	0.87009
3781.96793	0.87012
3780.03934	0.87008
3778.11074	0.87001
3776.18215	0.87003
3774.25356	0.87019
3772.32497	0.87038
3770.39638	0.87047
3768.46779	0.87043
3766.53919	0.87038
3764.61060	0.87038
3762.68201	0.87047
3760.75342	0.87061
3758.82483	0.87074
3756.89624	0.87091
3754.96765	0.87113
3753.03905	0.87124
3751.11046	0.87109
3749.18187	0.87078
3747.25328	0.87054
3745.32469	0.87036
3743.39610	0.87024
3741.46751	0.87032
3739.53891	0.87061
3737.61032	0.87083
3735.68173	0.87076
3733.75314	0.87047
3731.82455	0.87027
3729.89596	0.87032
3727.96737	0.87055
3726.03877	0.87074
3724.11018	0.87080
3722.18159	0.87080
3720.25300	0.87090
3718.32441	0.87118
3716.39582	0.87156
3714.46722	0.87185
3712.53863	0.87181
3710.61004	0.87150
3708.68145	0.87126
3706.75286	0.87135
3704.82427	0.87172
3702.89568	0.87211
3700.96708	0.87240
3699.03849	0.87265
3697.10990	0.87298
3695.18131	0.87334
3693.25272	0.87358
3691.32413	0.87351
3689.39554	0.87314
3687.46694	0.87276
3685.53835	0.87272
3683.60976	0.87307
3681.68117	0.87363
3679.75258	0.87412
3677.82399	0.87435
3675.89539	0.87423
3673.96680	0.87394
3672.03821	0.87373
3670.10962	0.87364
3668.18103	0.87363
3666.25244	0.87380
3664.32385	0.87416
3662.39525	0.87461
3660.46666	0.87508
3658.53807	0.87553
3656.60948	0.87595
3654.68089	0.87638
3652.75230	0.87676
3650.82371	0.87692
3648.89511	0.87676
3646.96652	0.87653
3645.03793	0.87653
3643.10934	0.87682
3641.18075	0.87725
3639.25216	0.87769
3637.32356	0.87813
3635.39497	0.87857
3633.46638	0.87900
3631.53779	0.87933
3629.60920	0.87948
3627.68061	0.87954
3625.75202	0.87978
3623.82342	0.88030
3621.89483	0.88095
3619.96624	0.88147
3618.03765	0.88181
3616.10906	0.88208
3614.18047	0.88238
3612.25188	0.88270
3610.32328	0.88300
3608.39469	0.88330
3606.46610	0.88365
3604.53751	0.88409
3602.60892	0.88461
3600.68033	0.88515
3598.75173	0.88568
3596.82314	0.88623
3594.89455	0.88679
3592.96596	0.88737
3591.03737	0.88797
3589.10878	0.88854
3587.18019	0.88907
3585.25159	0.88963
3583.32300	0.89031
3581.39441	0.89116
3579.46582	0.89219
3577.53723	0.89346
3575.60864	0.89503
3573.68005	0.89699
3571.75145	0.89943
3569.82286	0.90240
3567.89427	0.90579
3565.96568	0.90931
3564.03709	0.91251
3562.10850	0.91495
3560.17990	0.91633
3558.25131	0.91661
3556.32272	0.91599
3554.39413	0.91479
3552.46554	0.91334
3550.53695	0.91191
3548.60836	0.91071
3546.67976	0.90985
3544.75117	0.90940
3542.82258	0.90937
3540.89399	0.90967
3538.96540	0.91023
3537.03681	0.91094
3535.10822	0.91178
3533.17962	0.91274
3531.25103	0.91379
3529.32244	0.91484
3527.39385	0.91583
3525.46526	0.91673
3523.53667	0.91753
3521.60807	0.91821
3519.67948	0.91877
3517.75089	0.91922
3515.82230	0.91958
3513.89371	0.91992
3511.96512	0.92034
3510.03653	0.92084
3508.10793	0.92144
3506.17934	0.92212
3504.25075	0.92285
3502.32216	0.92363
3500.39357	0.92447
3498.46498	0.92540
3496.53639	0.92638
3494.60779	0.92738
3492.67920	0.92840
3490.75061	0.92947
3488.82202	0.93057
3486.89343	0.93169
3484.96484	0.93283
3483.03624	0.93398
3481.10765	0.93516
3479.17906	0.93638
3477.25047	0.93765
3475.32188	0.93891
3473.39329	0.94013
3471.46470	0.94129
3469.53610	0.94242
3467.60751	0.94351
3465.67892	0.94460
3463.75033	0.94573
3461.82174	0.94692
3459.89315	0.94816
3457.96456	0.94944
3456.03596	0.95072
3454.10737	0.95198
3452.17878	0.95323
3450.25019	0.95445
3448.32160	0.95561
3446.39301	0.95666
3444.46441	0.95762
3442.53582	0.95854
3440.60723	0.95948
3438.67864	0.96051
3436.75005	0.96166
3434.82146	0.96294
3432.89287	0.96435
3430.96427	0.96589
3429.03568	0.96754
3427.10709	0.96926
3425.17850	0.97106
3423.24991	0.97291
3421.32132	0.97476
3419.39273	0.97660
3417.46413	0.97840
3415.53554	0.98020
3413.60695	0.98199
3411.67836	0.98378
3409.74977	0.98556
3407.82118	0.98734
3405.89258	0.98916
3403.96399	0.99108
3402.03540	0.99312
3400.10681	0.99528
3398.17822	0.99758
3396.24963	1.00007
3394.32104	1.00277
3392.39244	1.00566
3390.46385	1.00866
3388.53526	1.01162
3386.60667	1.01438
3384.67808	1.01676
3382.74949	1.01859
3380.82090	1.01977
3378.89230	1.02033
3376.96371	1.02034
3375.03512	1.01994
3373.10653	1.01927
3371.17794	1.01851
3369.24935	1.01777
3367.32075	1.01714
3365.39216	1.01667
3363.46357	1.01644
3361.53498	1.01647
3359.60639	1.01679
3357.67780	1.01739
3355.74921	1.01822
3353.82061	1.01924
3351.89202	1.02041
3349.96343	1.02173
3348.03484	1.02317
3346.10625	1.02467
3344.17766	1.02619
3342.24907	1.02771
3340.32047	1.02920
3338.39188	1.03064
3336.46329	1.03202
3334.53470	1.03326
3332.60611	1.03431
3330.67752	1.03517
3328.74892	1.03587
3326.82033	1.03643
3324.89174	1.03691
3322.96315	1.03732
3321.03456	1.03768
3319.10597	1.03795
3317.17738	1.03815
3315.24878	1.03831
3313.32019	1.03847
3311.39160	1.03864
3309.46301	1.03884
3307.53442	1.03906
3305.60583	1.03931
3303.67724	1.03959
3301.74864	1.03989
3299.82005	1.04015
3297.89146	1.04036
3295.96287	1.04054
3294.03428	1.04071
3292.10569	1.04089
3290.17710	1.04102
3288.24850	1.04107
3286.31991	1.04101
3284.39132	1.04082
3282.46273	1.04051
3280.53414	1.04011
3278.60555	1.03964
3276.67695	1.03913
3274.74836	1.03860
3272.81977	1.03804
3270.89118	1.03744
3268.96259	1.03679
3267.03400	1.03610
3265.10541	1.03536
3263.17681	1.03462
3261.24822	1.03387
3259.31963	1.03312
3257.39104	1.03236
3255.46245	1.03156
3253.53386	1.03076
3251.60527	1.03002
3249.67667	1.02938
3247.74808	1.02874
3245.81949	1.02796
3243.89090	1.02705
3241.96231	1.02615
3240.03372	1.02540
3238.10512	1.02483
3236.17653	1.02433
3234.24794	1.02372
3232.31935	1.02285
3230.39076	1.02177
3228.46217	1.02068
3226.53358	1.01973
3224.60498	1.01894
3222.67639	1.01825
3220.74780	1.01759
3218.81921	1.01689
3216.89062	1.01609
3214.96203	1.01516
3213.03344	1.01412
3211.10484	1.01300
3209.17625	1.01184
3207.24766	1.01064
3205.31907	1.00940
3203.39048	1.00813
3201.46189	1.00686
3199.53329	1.00563
3197.60470	1.00442
3195.67611	1.00322
3193.74752	1.00200
3191.81893	1.00071
3189.89034	0.99934
3187.96175	0.99786
3186.03315	0.99631
3184.10456	0.99477
3182.17597	0.99330
3180.24738	0.99190
3178.31879	0.99053
3176.39020	0.98915
3174.46161	0.98774
3172.53301	0.98630
3170.60442	0.98483
3168.67583	0.98337
3166.74724	0.98193
3164.81865	0.98052
3162.89006	0.97914
3160.96146	0.97777
3159.03287	0.97645
3157.10428	0.97518
3155.17569	0.97393
3153.24710	0.97260
3151.31851	0.97109
3149.38992	0.96943
3147.46132	0.96774
3145.53273	0.96617
3143.60414	0.96478
3141.67555	0.96354
3139.74696	0.96234
3137.81837	0.96106
3135.88978	0.95973
3133.96118	0.95845
3132.03259	0.95730
3130.10400	0.95626
3128.17541	0.95528
3126.24682	0.95431
3124.31823	0.95337
3122.38963	0.95242
3120.46104	0.95139
3118.53245	0.95019
3116.60386	0.94877
3114.67527	0.94713
3112.74668	0.94536
3110.81809	0.94353
3108.88949	0.94174
3106.96090	0.94009
3105.03231	0.93862
3103.10372	0.93735
3101.17513	0.93629
3099.24654	0.93535
3097.31795	0.93444
3095.38935	0.93346
3093.46076	0.93236
3091.53217	0.93111
3089.60358	0.92971
3087.67499	0.92808
3085.74640	0.92614
3083.81780	0.92391
3081.88921	0.92154
3079.96062	0.91924
3078.03203	0.91707
3076.10344	0.91497
3074.17485	0.91290
3072.24626	0.91110
3070.31766	0.90997
3068.38907	0.90977
3066.46048	0.91042
3064.53189	0.91157
3062.60330	0.91276
3060.67471	0.91369
3058.74612	0.91425
3056.81752	0.91444
3054.88893	0.91436
3052.96034	0.91410
3051.03175	0.91369
3049.10316	0.91316
3047.17457	0.91253
3045.24597	0.91183
3043.31738	0.91108
3041.38879	0.91029
3039.46020	0.90951
3037.53161	0.90880
3035.60302	0.90818
3033.67443	0.90763
3031.74583	0.90712
3029.81724	0.90668
3027.88865	0.90632
3025.96006	0.90608
3024.03147	0.90594
3022.10288	0.90590
3020.17429	0.90597
3018.24569	0.90609
3016.31710	0.90611
3014.38851	0.90587
3012.45992	0.90531
3010.53133	0.90451
3008.60274	0.90365
3006.67414	0.90294
3004.74555	0.90255
3002.81696	0.90260
3000.88837	0.90314
2998.95978	0.90414
2997.03119	0.90533
2995.10260	0.90604
2993.17400	0.90597
2991.24541	0.90566
2989.31682	0.90592
2987.38823	0.90697
2985.45964	0.90836
2983.53105	0.90957
2981.60246	0.91050
2979.67386	0.91147
2977.74527	0.91289
2975.81668	0.91499
2973.88809	0.91752
2971.95950	0.91948
2970.03091	0.92003
2968.10231	0.91965
2966.17372	0.91959
2964.24513	0.92045
2962.31654	0.92197
2960.38795	0.92353
2958.45936	0.92465
2956.53077	0.92527
2954.60217	0.92567
2952.67358	0.92637
2950.74499	0.92801
2948.81640	0.93112
2946.88781	0.93545
2944.95922	0.93992
2943.03063	0.94358
2941.10203	0.94641
2939.17344	0.94918
2937.24485	0.95258
2935.31626	0.95667
2933.38767	0.96080
2931.45908	0.96407
2929.53048	0.96605
2927.60189	0.96711
2925.67330	0.96785
2923.74471	0.96856
2921.81612	0.96924
2919.88753	0.96981
2917.95894	0.96993
2916.03034	0.96888
2914.10175	0.96593
2912.17316	0.96124
2910.24457	0.95617
2908.31598	0.95244
2906.38739	0.95099
2904.45880	0.95142
2902.53020	0.95227
2900.60161	0.95189
2898.67302	0.94959
2896.74443	0.94601
2894.81584	0.94234
2892.88725	0.93940
2890.95866	0.93735
2889.03006	0.93604
2887.10147	0.93518
2885.17288	0.93448
2883.24429	0.93377
2881.31570	0.93313
2879.38711	0.93275
2877.45851	0.93260
2875.52992	0.93247
2873.60133	0.93203
2871.67274	0.93114
2869.74415	0.92998
2867.81556	0.92902
2865.88697	0.92870
2863.95837	0.92930
2862.02978	0.93089
2860.10119	0.93333
2858.17260	0.93629
2856.24401	0.93926
2854.31542	0.94148
2852.38683	0.94208
2850.45823	0.94035
2848.52964	0.93634
2846.60105	0.93091
2844.67246	0.92522
2842.74387	0.92009
2840.81528	0.91592
2838.88668	0.91277
2836.95809	0.91049
2835.02950	0.90886
2833.10091	0.90765
2831.17232	0.90674
2829.24373	0.90605
2827.31514	0.90548
2825.38654	0.90492
2823.45795	0.90433
2821.52936	0.90370
2819.60077	0.90306
2817.67218	0.90245
2815.74359	0.90186
2813.81500	0.90125
2811.88640	0.90062
2809.95781	0.89999
2808.02922	0.89937
2806.10063	0.89876
2804.17204	0.89821
2802.24345	0.89779
2800.31485	0.89749
2798.38626	0.89726
2796.45767	0.89706
2794.52908	0.89688
2792.60049	0.89669
2790.67190	0.89646
2788.74331	0.89621
2786.81471	0.89597
2784.88612	0.89569
2782.95753	0.89531
2781.02894	0.89486
2779.10035	0.89439
2777.17176	0.89393
2775.24317	0.89351
2773.31457	0.89315
2771.38598	0.89282
2769.45739	0.89248
2767.52880	0.89214
2765.60021	0.89184
2763.67162	0.89159
2761.74302	0.89136
2759.81443	0.89110
2757.88584	0.89079
2755.95725	0.89046
2754.02866	0.89015
2752.10007	0.88986
2750.17148	0.88959
2748.24288	0.88931
2746.31429	0.88903
2744.38570	0.88875
2742.45711	0.88853
2740.52852	0.88841
2738.59993	0.88838
2736.67134	0.88840
2734.74274	0.88844
2732.81415	0.88844
2730.88556	0.88837
2728.95697	0.88825
2727.02838	0.88807
2725.09979	0.88782
2723.17119	0.88750
2721.24260	0.88711
2719.31401	0.88668
2717.38542	0.88627
2715.45683	0.88586
2713.52824	0.88548
2711.59965	0.88513
2709.67105	0.88483
2707.74246	0.88457
2705.81387	0.88434
2703.88528	0.88412
2701.95669	0.88392
2700.02810	0.88375
2698.09951	0.88359
2696.17091	0.88339
2694.24232	0.88316
2692.31373	0.88292
2690.38514	0.88267
2688.45655	0.88243
2686.52796	0.88226
2684.59936	0.88222
2682.67077	0.88232
2680.74218	0.88247
2678.81359	0.88255
2676.88500	0.88254
2674.95641	0.88247
2673.02782	0.88237
2671.09922	0.88225
2669.17063	0.88210
2667.24204	0.88189
2665.31345	0.88160
2663.38486	0.88126
2661.45627	0.88090
2659.52768	0.88055
2657.59908	0.88023
2655.67049	0.87997
2653.74190	0.87979
2651.81331	0.87969
2649.88472	0.87964
2647.95613	0.87963
2646.02753	0.87966
2644.09894	0.87970
2642.17035	0.87970
2640.24176	0.87962
2638.31317	0.87946
2636.38458	0.87924
2634.45599	0.87901
2632.52739	0.87885
2630.59880	0.87877
2628.67021	0.87868
2626.74162	0.87855
2624.81303	0.87841
2622.88444	0.87827
2620.95585	0.87805
2619.02725	0.87771
2617.09866	0.87733
2615.17007	0.87701
2613.24148	0.87677
2611.31289	0.87649
2609.38430	0.87611
2607.45570	0.87566
2605.52711	0.87520
2603.59852	0.87479
2601.66993	0.87442
2599.74134	0.87409
2597.81275	0.87381
2595.88416	0.87357
2593.95556	0.87337
2592.02697	0.87315
2590.09838	0.87289
2588.16979	0.87266
2586.24120	0.87253
2584.31261	0.87249
2582.38402	0.87251
2580.45542	0.87260
2578.52683	0.87279
2576.59824	0.87304
2574.66965	0.87327
2572.74106	0.87345
2570.81247	0.87357
2568.88387	0.87362
2566.95528	0.87356
2565.02669	0.87337
2563.09810	0.87319
2561.16951	0.87308
2559.24092	0.87296
2557.31233	0.87280
2555.38373	0.87276
2553.45514	0.87294
2551.52655	0.87324
2549.59796	0.87347
2547.66937	0.87359
2545.74078	0.87366
2543.81219	0.87368
2541.88359	0.87362
2539.95500	0.87356
2538.02641	0.87358
2536.09782	0.87361
2534.16923	0.87354
2532.24064	0.87339
2530.31204	0.87323
2528.38345	0.87310
2526.45486	0.87297
2524.52627	0.87280
2522.59768	0.87263
2520.66909	0.87254
2518.74050	0.87258
2516.81190	0.87273
2514.88331	0.87291
2512.95472	0.87312
2511.02613	0.87339
2509.09754	0.87371
2507.16895	0.87404
2505.24036	0.87436
2503.31176	0.87465
2501.38317	0.87494
2499.45458	0.87524
2497.52599	0.87550
2495.59740	0.87569
2493.66881	0.87577
2491.74022	0.87580
2489.81162	0.87585
2487.88303	0.87591
2485.95444	0.87593
2484.02585	0.87591
2482.09726	0.87591
2480.16867	0.87593
2478.24007	0.87595
2476.31148	0.87596
2474.38289	0.87602
2472.45430	0.87611
2470.52571	0.87616
2468.59712	0.87614
2466.66853	0.87614
2464.73993	0.87619
2462.81134	0.87625
2460.88275	0.87626
2458.95416	0.87624
2457.02557	0.87626
2455.09698	0.87629
2453.16839	0.87629
2451.23979	0.87626
2449.31120	0.87621
2447.38261	0.87610
2445.45402	0.87590
2443.52543	0.87559
2441.59684	0.87521
2439.66824	0.87484
2437.73965	0.87454
2435.81106	0.87436
2433.88247	0.87432
2431.95388	0.87439
2430.02529	0.87450
2428.09670	0.87460
2426.16810	0.87460
2424.23951	0.87453
2422.31092	0.87448
2420.38233	0.87452
2418.45374	0.87460
2416.52515	0.87469
2414.59656	0.87479
2412.66796	0.87495
2410.73937	0.87518
2408.81078	0.87544
2406.88219	0.87565
2404.95360	0.87581
2403.02501	0.87599
2401.09641	0.87623
2399.16782	0.87648
2397.23923	0.87669
2395.31064	0.87681
2393.38205	0.87687
2391.45346	0.87689
2389.52487	0.87692
2387.59627	0.87701
2385.66768	0.87717
2383.73909	0.87740
2381.81050	0.87763
2379.88191	0.87783
2377.95332	0.87799
2376.02473	0.87815
2374.09613	0.87832
2372.16754	0.87849
2370.23895	0.87859
2368.31036	0.87860
2366.38177	0.87854
2364.45318	0.87847
2362.52458	0.87844
2360.59599	0.87847
2358.66740	0.87856
2356.73881	0.87872
2354.81022	0.87897
2352.88163	0.87932
2350.95304	0.87978
2349.02444	0.88030
2347.09585	0.88075
2345.16726	0.88099
2343.23867	0.88104
2341.31008	0.88100
2339.38149	0.88092
2337.45290	0.88085
2335.52430	0.88080
2333.59571	0.88077
2331.66712	0.88070
2329.73853	0.88060
2327.80994	0.88050
2325.88135	0.88049
2323.95275	0.88061
2322.02416	0.88083
2320.09557	0.88111
2318.16698	0.88144
2316.23839	0.88183
2314.30980	0.88224
2312.38121	0.88263
2310.45261	0.88296
2308.52402	0.88323
2306.59543	0.88346
2304.66684	0.88365
2302.73825	0.88383
2300.80966	0.88399
2298.88107	0.88411
2296.95247	0.88421
2295.02388	0.88428
2293.09529	0.88431
2291.16670	0.88431
2289.23811	0.88426
2287.30952	0.88417
2285.38092	0.88404
2283.45233	0.88395
2281.52374	0.88394
2279.59515	0.88404
2277.66656	0.88420
2275.73797	0.88438
2273.80938	0.88454
2271.88078	0.88471
2269.95219	0.88489
2268.02360	0.88509
2266.09501	0.88532
2264.16642	0.88559
2262.23783	0.88594
2260.30924	0.88633
2258.38064	0.88670
2256.45205	0.88698
2254.52346	0.88715
2252.59487	0.88725
2250.66628	0.88731
2248.73769	0.88734
2246.80909	0.88735
2244.88050	0.88737
2242.95191	0.88747
2241.02332	0.88761
2239.09473	0.88764
2237.16614	0.88753
2235.23755	0.88746
2233.30895	0.88758
2231.38036	0.88791
2229.45177	0.88835
2227.52318	0.88876
2225.59459	0.88897
2223.66600	0.88896
2221.73741	0.88894
2219.80881	0.88904
2217.88022	0.88926
2215.95163	0.88961
2214.02304	0.89008
2212.09445	0.89053
2210.16586	0.89079
2208.23726	0.89081
2206.30867	0.89077
2204.38008	0.89091
2202.45149	0.89132
2200.52290	0.89183
2198.59431	0.89224
2196.66572	0.89252
2194.73712	0.89263
2192.80853	0.89251
2190.87994	0.89225
2188.95135	0.89203
2187.02276	0.89201
2185.09417	0.89210
2183.16558	0.89223
2181.23698	0.89243
2179.30839	0.89266
2177.37980	0.89285
2175.45121	0.89303
2173.52262	0.89326
2171.59403	0.89349
2169.66543	0.89368
2167.73684	0.89382
2165.80825	0.89381
2163.87966	0.89355
2161.95107	0.89303
2160.02248	0.89250
2158.09389	0.89245
2156.16529	0.89298
2154.23670	0.89367
2152.30811	0.89405
2150.37952	0.89406
2148.45093	0.89392
2146.52234	0.89392
2144.59375	0.89412
2142.66515	0.89432
2140.73656	0.89434
2138.80797	0.89432
2136.87938	0.89442
2134.95079	0.89457
2133.02220	0.89466
2131.09360	0.89476
2129.16501	0.89493
2127.23642	0.89513
2125.30783	0.89528
2123.37924	0.89544
2121.45065	0.89573
2119.52206	0.89611
2117.59346	0.89646
2115.66487	0.89667
2113.73628	0.89673
2111.80769	0.89674
2109.87910	0.89683
2107.95051	0.89700
2106.02192	0.89716
2104.09332	0.89732
2102.16473	0.89751
2100.23614	0.89769
2098.30755	0.89779
2096.37896	0.89780
2094.45037	0.89780
2092.52177	0.89780
2090.59318	0.89781
2088.66459	0.89785
2086.73600	0.89793
2084.80741	0.89806
2082.87882	0.89827
2080.95023	0.89857
2079.02163	0.89890
2077.09304	0.89920
2075.16445	0.89942
2073.23586	0.89957
2071.30727	0.89968
2069.37868	0.89980
2067.45009	0.89991
2065.52149	0.89996
2063.59290	0.89991
2061.66431	0.89974
2059.73572	0.89949
2057.80713	0.89920
2055.87854	0.89889
2053.94995	0.89860
2052.02135	0.89834
2050.09276	0.89810
2048.16417	0.89785
2046.23558	0.89760
2044.30699	0.89739
2042.37840	0.89727
2040.44980	0.89730
2038.52121	0.89749
2036.59262	0.89776
2034.66403	0.89803
2032.73544	0.89828
2030.80685	0.89852
2028.87826	0.89879
2026.94966	0.89913
2025.02107	0.89948
2023.09248	0.89975
2021.16389	0.89991
2019.23530	0.89999
2017.30671	0.90005
2015.37812	0.90015
2013.44952	0.90029
2011.52093	0.90049
2009.59234	0.90073
2007.66375	0.90103
2005.73516	0.90141
2003.80657	0.90181
2001.87797	0.90215
1999.94938	0.90238
1998.02079	0.90256
1996.09220	0.90276
1994.16361	0.90300
1992.23502	0.90322
1990.30643	0.90340
1988.37783	0.90355
1986.44924	0.90371
1984.52065	0.90384
1982.59206	0.90391
1980.66347	0.90393
1978.73488	0.90394
1976.80629	0.90391
1974.87769	0.90373
1972.94910	0.90325
1971.02051	0.90239
1969.09192	0.90129
1967.16333	0.90024
1965.23474	0.89960
1963.30614	0.89953
1961.37755	0.89995
1959.44896	0.90062
1957.52037	0.90130
1955.59178	0.90173
1953.66319	0.90174
1951.73460	0.90133
1949.80600	0.90066
1947.87741	0.90001
1945.94882	0.89971
1944.02023	0.89996
1942.09164	0.90072
1940.16305	0.90169
1938.23446	0.90242
1936.30586	0.90260
1934.37727	0.90212
1932.44868	0.90110
1930.52009	0.89989
1928.59150	0.89892
1926.66291	0.89864
1924.73431	0.89917
1922.80572	0.90022
1920.87713	0.90123
1918.94854	0.90177
1917.01995	0.90168
1915.09136	0.90111
1913.16277	0.90043
1911.23417	0.90001
1909.30558	0.90013
1907.37699	0.90094
1905.44840	0.90235
1903.51981	0.90404
1901.59122	0.90565
1899.66263	0.90692
1897.73403	0.90778
1895.80544	0.90828
1893.87685	0.90857
1891.94826	0.90876
1890.01967	0.90887
1888.09108	0.90890
1886.16248	0.90889
1884.23389	0.90887
1882.30530	0.90881
1880.37671	0.90871
1878.44812	0.90861
1876.51953	0.90862
1874.59094	0.90887
1872.66234	0.90939
1870.73375	0.91010
1868.80516	0.91082
1866.87657	0.91145
1864.94798	0.91198
1863.01939	0.91244
1861.09080	0.91283
1859.16220	0.91314
1857.23361	0.91339
1855.30502	0.91361
1853.37643	0.91382
1851.44784	0.91402
1849.51925	0.91423
1847.59065	0.91439
1845.66206	0.91445
1843.73347	0.91442
1841.80488	0.91439
1839.87629	0.91443
1837.94770	0.91447
1836.01911	0.91441
1834.09051	0.91413
1832.16192	0.91363
1830.23333	0.91296
1828.30474	0.91234
1826.37615	0.91198
1824.44756	0.91195
1822.51897	0.91212
1820.59037	0.91227
1818.66178	0.91219
1816.73319	0.91176
1814.80460	0.91095
1812.87601	0.90976
1810.94742	0.90829
1809.01882	0.90680
1807.09023	0.90567
1805.16164	0.90517
1803.23305	0.90531
1801.30446	0.90594
1799.37587	0.90682
1797.44728	0.90772
1795.51868	0.90839
1793.59009	0.90871
1791.66150	0.90880
1789.73291	0.90908
1787.80432	0.90990
1785.87573	0.91126
1783.94714	0.91287
1782.01854	0.91442
1780.08995	0.91575
1778.16136	0.91684
1776.23277	0.91775
1774.30418	0.91854
1772.37559	0.91924
1770.44699	0.91993
1768.51840	0.92074
1766.58981	0.92183
1764.66122	0.92333
1762.73263	0.92535
1760.80404	0.92795
1758.87545	0.93119
1756.94685	0.93504
1755.01826	0.93940
1753.08967	0.94411
1751.16108	0.94890
1749.23249	0.95331
1747.30390	0.95674
1745.37531	0.95872
1743.44671	0.95905
1741.51812	0.95778
1739.58953	0.95527
1737.66094	0.95211
1735.73235	0.94884
1733.80376	0.94584
1731.87516	0.94341
1729.94657	0.94166
1728.01798	0.94045
1726.08939	0.93959
1724.16080	0.93901
1722.23221	0.93869
1720.30362	0.93858
1718.37502	0.93858
1716.44643	0.93861
1714.51784	0.93874
1712.58925	0.93916
1710.66066	0.94000
1708.73207	0.94133
1706.80348	0.94317
1704.87488	0.94544
1702.94629	0.94807
1701.01770	0.95105
1699.08911	0.95430
1697.16052	0.95771
1695.23193	0.96119
1693.30333	0.96461
1691.37474	0.96796
1689.44615	0.97130
1687.51756	0.97466
1685.58897	0.97810
1683.66038	0.98155
1681.73179	0.98488
1679.80319	0.98808
1677.87460	0.99127
1675.94601	0.99462
1674.01742	0.99819
1672.08883	1.00212
1670.16024	1.00653
1668.23165	1.01143
1666.30305	1.01677
1664.37446	1.02262
1662.44587	1.02885
1660.51728	1.03496
1658.58869	1.04048
1656.66010	1.04530
1654.73151	1.04940
1652.80291	1.05239
1650.87432	1.05361
1648.94573	1.05288
1647.01714	1.05049
1645.08855	1.04683
1643.15996	1.04203
1641.23136	1.03540
1639.30277	1.02541
1637.37418	1.01015
1635.44559	0.98830
1633.51700	0.95955
1631.58841	0.92315
1629.65982	0.87807
1627.73122	0.82633
1625.80263	0.77442
1623.87404	0.73042
1621.94545	0.70051
1620.01686	0.68658
1618.08827	0.68620
1616.15968	0.69530
1614.23108	0.71038
1612.30249	0.72897
1610.37390	0.74917
1608.44531	0.76930
1606.51672	0.78821
1604.58813	0.80569
1602.65953	0.82212
1600.73094	0.83777
1598.80235	0.85252
1596.87376	0.86578
1594.94517	0.87634
1593.01658	0.88239
1591.08799	0.88197
1589.15939	0.87408
1587.23080	0.86002
1585.30221	0.84372
1583.37362	0.82999
1581.44503	0.82153
1579.51644	0.81703
1577.58785	0.81219
1575.65925	0.80310
1573.73066	0.78957
1571.80207	0.77543
1569.87348	0.76603
1567.94489	0.76562
1566.01630	0.77540
1564.08770	0.79369
1562.15911	0.81765
1560.23052	0.84465
1558.30193	0.87158
1556.37334	0.89448
1554.44475	0.91179
1552.51616	0.92447
1550.58756	0.93401
1548.65897	0.94147
1546.73038	0.94748
1544.80179	0.95241
1542.87320	0.95637
1540.94461	0.95920
1539.01602	0.96063
1537.08742	0.96049
1535.15883	0.95865
1533.23024	0.95476
1531.30165	0.94816
1529.37306	0.93772
1527.44447	0.92168
1525.51587	0.89839
1523.58728	0.86738
1521.65869	0.83096
1519.73010	0.79564
1517.80151	0.76940
1515.87292	0.75761
1513.94433	0.76158
1512.01573	0.77877
1510.08714	0.80429
1508.15855	0.83286
1506.22996	0.85961
1504.30137	0.88087
1502.37278	0.89610
1500.44419	0.90683
1498.51559	0.91424
1496.58700	0.91816
1494.65841	0.91749
1492.72982	0.91065
1490.80123	0.89600
1488.87264	0.87305
1486.94404	0.84380
1485.01545	0.81213
1483.08686	0.78215
1481.15827	0.75754
1479.22968	0.74088
1477.30109	0.73241
1475.37250	0.73021
1473.44390	0.73234
1471.51531	0.73885
1469.58672	0.75116
1467.65813	0.77017
1465.72954	0.79498
1463.80095	0.82258
1461.87236	0.84906
1459.94376	0.87162
1458.01517	0.88835
1456.08658	0.89706
1454.15799	0.89617
1452.22940	0.88632
1450.30081	0.87049
1448.37221	0.85348
1446.44362	0.84048
1444.51503	0.83468
1442.58644	0.83600
1440.65785	0.84274
1438.72926	0.85424
1436.80067	0.87103
1434.87207	0.89235
1432.94348	0.91526
1431.01489	0.93668
1429.08630	0.95473
1427.15771	0.96882
1425.22912	0.97946
1423.30053	0.98749
1421.37193	0.99345
1419.44334	0.99757
1417.51475	0.99991
1415.58616	1.00054
1413.65757	0.99956
1411.72898	0.99683
1409.80038	0.99193
1407.87179	0.98451
1405.94320	0.97483
1404.01461	0.96415
1402.08602	0.95439
1400.15743	0.94723
1398.22884	0.94368
1396.30024	0.94399
1394.37165	0.94753
1392.44306	0.95312
1390.51447	0.95968
1388.58588	0.96649
1386.65729	0.97302
1384.72870	0.97885
1382.80010	0.98398
1380.87151	0.98886
1378.94292	0.99385
1377.01433	0.99885
1375.08574	1.00331
1373.15715	1.00659
1371.22855	1.00823
1369.29996	1.00787
1367.37137	1.00507
1365.44278	0.99977
1363.51419	0.99316
1361.58560	0.98747
1359.65701	0.98329
1357.72841	0.97651
1355.79982	0.95931
1353.87123	0.92495
1351.94264	0.87230
1350.01405	0.80666
1348.08546	0.73664
1346.15687	0.66976
1344.22827	0.61018
1342.29968	0.55973
1340.37109	0.52019
1338.44250	0.49445
1336.51391	0.48523
1334.58532	0.49297
1332.65672	0.51529
1330.72813	0.54796
1328.79954	0.58637
1326.87095	0.62662
1324.94236	0.66577
1323.01377	0.70156
1321.08518	0.73202
1319.15658	0.75498
1317.22799	0.76759
1315.29940	0.76671
1313.37081	0.75091
1311.44222	0.72296
1309.51363	0.69059
1307.58504	0.66381
1305.65644	0.64992
1303.72785	0.64993
1301.79926	0.65909
1299.87067	0.67055
1297.94208	0.67931
1296.01349	0.68410
1294.08489	0.68671
1292.15630	0.68986
1290.22771	0.69521
1288.29912	0.70278
1286.37053	0.71166
1284.44194	0.72114
1282.51335	0.73123
1280.58475	0.74182
1278.65616	0.75168
1276.72757	0.75874
1274.79898	0.76185
1272.87039	0.76240
1270.94180	0.76397
1269.01321	0.76985
1267.08461	0.78048
1265.15602	0.79357
1263.22743	0.80629
1261.29884	0.81697
1259.37025	0.82535
1257.44166	0.83199
1255.51306	0.83765
1253.58447	0.84298
1251.65588	0.84842
1249.72729	0.85417
1247.79870	0.86011
1245.87011	0.86583
1243.94152	0.87085
1242.01292	0.87501
1240.08433	0.87852
1238.15574	0.88142
1236.22715	0.88302
1234.29856	0.88200
1232.36997	0.87738
1230.44138	0.86964
1228.51278	0.86112
1226.58419	0.85492
1224.65560	0.85308
1222.72701	0.85538
1220.79842	0.85991
1218.86983	0.86471
1216.94124	0.86913
1215.01264	0.87394
1213.08405	0.88031
1211.15546	0.88869
1209.22687	0.89821
1207.29828	0.90702
1205.36969	0.91278
1203.44109	0.91269
1201.51250	0.90338
1199.58391	0.88153
1197.65532	0.84764
1195.72673	0.81331
1193.79814	0.79134
1191.86955	0.78242
1189.94095	0.77588
1188.01236	0.76181
1186.08377	0.74074
1184.15518	0.72396
1182.22659	0.72412
1180.29800	0.74387
1178.36941	0.77489
1176.44081	0.80719
1174.51222	0.83579
1172.58363	0.85956
1170.65504	0.87807
1168.72645	0.89081
1166.79786	0.89769
1164.86926	0.89954
1162.94067	0.89871
1161.01208	0.89902
1159.08349	0.90280
1157.15490	0.90846
1155.22631	0.91330
1153.29772	0.91702
1151.36912	0.92105
1149.44053	0.92677
1147.51194	0.93499
1145.58335	0.94576
1143.65476	0.95804
1141.72617	0.97002
1139.79758	0.98006
1137.86898	0.98752
1135.94039	0.99260
1134.01180	0.99556
1132.08321	0.99600
1130.15462	0.99324
1128.22603	0.98774
1126.29743	0.98251
1124.36884	0.98305
1122.44025	0.99385
1120.51166	1.01414
1118.58307	1.03767
1116.65448	1.05641
1114.72589	1.06482
1112.79729	1.06333
1110.86870	1.05739
1108.94011	1.05042
1107.01152	1.03683
1105.08293	1.00442
1103.15434	0.94707
1101.22575	0.87513
1099.29715	0.81126
1097.36856	0.77692
1095.43997	0.78005
1093.51138	0.81079
1091.58279	0.84997
1089.65420	0.88399
1087.72560	0.91015
1085.79701	0.93069
1083.86842	0.94780
1081.93983	0.96343
1080.01124	0.98002
1078.08265	0.99982
1076.15406	1.02395
1074.22546	1.05203
1072.29687	1.08217
1070.36828	1.11097
1068.43969	1.13377
1066.51110	1.14649
1064.58251	1.14863
1062.65392	1.14462
1060.72532	1.14102
1058.79673	1.14237
1056.86814	1.14870
1054.93955	1.15547
1053.01096	1.15575
1051.08237	1.14480
1049.15377	1.12605
1047.22518	1.11105
1045.29659	1.10927
1043.36800	1.11967
1041.43941	1.13403
1039.51082	1.14466
1037.58223	1.14625
1035.65363	1.13448
1033.72504	1.10763
1031.79645	1.07161
1029.86786	1.04001
1027.93927	1.02361
1026.01068	1.02191
1024.08209	1.02901
1022.15349	1.04227
1020.22490	1.06091
1018.29631	1.08134
1016.36772	1.09841
1014.43913	1.10875
1012.51054	1.11217
1010.58194	1.11222
1008.65335	1.11442
1006.72476	1.12109
1004.79617	1.12824
1002.86758	1.12973
1000.93899	1.12434
999.01040	1.11748
997.08180	1.11677
995.15321	1.12662
993.22462	1.14345
991.29603	1.15383
989.36744	1.14225
987.43885	1.10903
985.51026	1.07577
983.58166	1.06217
981.65307	1.06525
979.72448	1.06959
977.79589	1.06702
975.86730	1.05880
973.93871	1.04768
972.01011	1.03548
970.08152	1.02452
968.15293	1.01665
966.22434	1.01118
964.29575	1.00668
962.36716	1.00272
960.43857	0.99933
958.50997	0.99704
956.58138	0.99680
954.65279	0.99811
952.72420	0.99593
950.79561	0.97934
948.86702	0.94128
946.93843	0.89739
945.00983	0.87892
943.08124	0.89447
941.15265	0.91341
939.22406	0.90384
937.29547	0.87813
935.36688	0.87172
933.43828	0.89364
931.50969	0.92462
929.58110	0.94902
927.65251	0.96796
925.72392	0.98772
923.79533	1.00851
921.86674	1.02323
919.93814	1.02586
918.00955	1.02099
916.08096	1.02077
914.15237	1.03231
912.22378	1.05180
910.29519	1.06669
908.36660	1.06048
906.43800	1.02581
904.50941	0.97856
902.58082	0.94768
900.65223	0.94645
898.72364	0.96218
896.79505	0.97597
894.86645	0.98152
892.93786	0.98021
891.00927	0.97076
889.08068	0.95077
887.15209	0.92257
885.22350	0.89325
883.29491	0.86964
881.36631	0.85549
879.43772	0.85231
877.50913	0.85950
875.58054	0.87452
873.65195	0.89464
871.72336	0.91698
869.79477	0.93598
867.86617	0.94341
865.93758	0.93358
864.00899	0.90896
862.08040	0.87862
860.15181	0.85195
858.22322	0.83446
856.29462	0.82696
854.36603	0.82875
852.43744	0.84202
850.50885	0.86876
848.58026	0.90340
846.65167	0.93488
844.72308	0.95368
842.79448	0.94963
840.86589	0.90875
838.93730	0.82865
837.00871	0.73606
835.08012	0.67106
833.15153	0.65553
831.22294	0.68061
829.29434	0.71055
827.36575	0.71200
825.43716	0.69594
823.50857	0.69988
821.57998	0.73483
819.65139	0.78013
817.72280	0.81575
815.79420	0.83862
813.86561	0.85395
811.93702	0.86585
810.00843	0.87587
808.07984	0.88444
806.15125	0.89183
804.22265	0.89829
802.29406	0.90407
800.36547	0.90965
798.43688	0.91474
796.50829	0.91545
794.57970	0.90293
792.65111	0.87225
790.72251	0.83773
788.79392	0.82618
786.86533	0.84782
784.93674	0.88705
783.00815	0.92331
781.07956	0.94859
779.15097	0.96455
777.22237	0.97493
775.29378	0.98271
773.36519	0.98924
771.43660	0.99300
769.50801	0.98851
767.57942	0.96879
765.65082	0.93545
763.72223	0.90651
761.79364	0.90308
759.86505	0.92453
757.93646	0.94228
756.00787	0.92209
754.07928	0.85983
752.15068	0.79078
750.22209	0.74360
748.29350	0.69950
746.36491	0.63466
744.43632	0.58495
742.50773	0.60466
740.57914	0.69485
738.65054	0.80403
736.72195	0.88413
734.79336	0.92524
732.86477	0.93228
730.93618	0.91112
729.00759	0.88230
727.07899	0.87498
725.15040	0.89504
723.22181	0.91883
721.29322	0.92840
719.36463	0.91763
717.43604	0.89377
715.50745	0.87203
713.57885	0.86360
711.65026	0.86836
709.72167	0.87777
707.79308	0.88254
705.86449	0.87887
703.93590	0.87153
702.00731	0.87102
700.07871	0.88463
698.15012	0.91059
696.22153	0.94097
694.29294	0.96840
692.36435	0.98969
690.43576	1.00532
688.50716	1.01725
686.57857	1.02725
684.64998	1.03618
682.72139	1.04409
680.79280	1.05068
678.86421	1.05567
676.93562	1.05912
675.00702	1.06146
673.07843	1.06333
671.14984	1.06539
669.22125	1.06798
667.29266	1.07071
665.36407	1.07190
663.43548	1.06801
661.50688	1.05358
659.57829	1.02397
657.64970	0.98099
655.72111	0.93648
653.79252	0.90688
651.86393	0.90180
649.93533	0.91817
648.00674	0.94336
646.07815	0.96149
644.14956	0.96008
642.22097	0.93673
640.29238	0.90257
638.36379	0.87745
636.43519	0.87737
634.50660	0.90407
632.57801	0.94592
630.64942	0.98765
628.72083	1.01860
626.79224	1.03564
624.86365	1.04556
622.93505	1.05341
621.00646	1.06068
619.07787	1.06774
617.14928	1.07474
615.22069	1.08168
613.29210	1.08861
611.36350	1.09564
609.43491	1.10274
607.50632	1.10962
605.57773	1.11591
603.64914	1.12157
601.72055	1.12686
599.79196	1.13208
597.86336	1.13709
595.93477	1.14141
594.00618	1.14478
592.07759	1.14756
590.14900	1.15051
588.22041	1.15416
586.29182	1.15757
584.36322	1.15613
582.43463	1.14128
580.50604	1.10872
578.57745	1.07074
576.64886	1.05131
574.72027	1.06244
572.79167	1.09283
570.86308	1.12308
568.93449	1.14378
567.00590	1.15547
565.07731	1.15907
563.14872	1.15018
561.22013	1.12194
559.29153	1.07797
557.36294	1.04165
555.43435	1.03811
553.50576	1.06439
551.57717	1.09192
549.64858	1.10181
547.71999	1.09747
545.79139	1.08448
543.86280	1.06851
541.93421	1.06593
540.00562	1.08846
538.07703	1.12403
536.14844	1.14953
534.21984	1.15769
532.29125	1.15863
530.36266	1.16081
528.43407	1.16331
526.50548	1.16451
524.57689	1.16787
522.64830	1.17593
520.71970	1.18440
518.79111	1.18652
516.86252	1.18088
514.93393	1.17187
513.00534	1.16388
511.07675	1.15772
509.14816	1.15193
507.21956	1.14645
505.29097	1.14475
503.36238	1.14938
501.43379	1.15739
499.50520	1.16374
497.57661	1.16637
495.64801	1.16595
493.71942	1.16351
491.79083	1.15969
489.86224	1.15515
487.93365	1.15068
486.00506	1.14712
484.07647	1.14533
482.14787	1.14599
480.21928	1.14928
478.29069	1.15593
476.36210	1.16769
474.43351	1.18429
472.50492	1.19915
470.57633	1.20005
468.64773	1.17748
466.71914	1.13412
464.79055	1.08829
462.86196	1.05897
460.93337	1.04105
459.00478	1.01181
457.07618	0.97620
455.14759	0.97177
453.21900	1.01002
451.29041	1.06127
449.36182	1.09468
447.43323	1.10586
445.50464	1.10474
443.57604	1.09798
441.64745	1.08535
439.71886	1.06675
437.79027	1.04973
435.86168	1.04499
433.93309	1.05462
432.00450	1.07129
430.07590	1.08789
428.14731	1.10119
426.21872	1.11019
424.29013	1.11543
422.36154	1.11901
420.43295	1.12370
418.50435	1.13023
416.57576	1.13570
414.64717	1.13843
412.71858	1.14087
410.78999	1.14663
408.86140	1.15721
406.93281	1.17060
405.00421	1.18326
403.07562	1.19323
401.14703	1.19963
399.21844	1.20272
